##TITLE=easy001
##JCAMP-DX=4.24
##DATA TYPE=INFRARED SPECTRUM
##DATE=5/12/2012
##SAMPLING PROCEDURE=Liquid (neat)
##ORIGIN=admin
##XUNITS=1/CM
##YUNITS=TRANSMITTANCE
##RESOLUTION=4
##FIRSTX=3998.2532
##LASTX=474.9698
##DELTAX=-1.4178203
##MAXY=1.0027243
##MINY=0.078464136
##XFACTOR=1
##YFACTOR=9.3385977e-010
##NPOINTS=2486
##FIRSTY=1.0027243
##XYDATA=(X++(Y..Y))
3998+1073741823+1073586981+1073346867+1073121688+1072964676+1072778687
3990+1072495682+1072220336+1072069706+1072000136+1071887164+1071716876
3981+1071600584+1071632753+1071760660+1071817976+1071699642+1071491569
3973+1071351535+1071298559+1071229499+1071112442+1071056403+1071145504
3964+1071244562+1071103634+1070730762+1070451076+1070443098+1070532582
3956+1070548411+1070586515+1070753420+1070824586+1070370208+1069450410
3947+1068885485+1069150427+1069506194+1068984352+1067945645+1067603665
3939+1068256606+1069310439+1070224238+1070521476+1069597210+1067653960
3930+1066256806+1066509239+1067682107+1068227119+1067556434+1066769777
3922+1066981743+1067660853+1067383784+1065737070+1064107015+1063910367
3913+1064937393+1066130048+1067033634+1068122061+1069656313+1070561112
3905+1069108876+1065423365+1061879930+1059907767+1059382542+1060317084
3896+1062723775+1065715242+1067169201+1065241014+1062193061+1061964691
3888+1063902899+1064359256+1062326458+1060949345+1061155504+1060583047
3879+1059315078+1059906554+1062266589+1064119972+1064354150+1063371291
3871+1060915964+1057826908+1057012614+1058635074+1059737607+1058415704
3862+1056575980+1056826433+1059479621+1064045806+1069521257+1070824586
3854+1060180305+1047539350+1046923875+1052120917+1057189285+1060687977
3845+1062388880+1062471215+1061880505+1061333962+1059841452+1056558683
3837+1053778992+1053748866+1055350327+1056583320+1057030039+1057502161
3828+1058197546+1058848190+1060117308+1062289119+1062710755+1058775364
3820+1054822995+1054883758+1055872935+1054797529+1053843903+1055507913
3811+1059024094+1062275205+1062714074+1059832516+1057764231+1058887315
3803+1059735756+1056935065+1053870582+1054106356+1055656182+1056195193
3794+1056250722+1057011721+1058171505+1058979480+1059365309+1059398818
3786+1058915781+1058369940+1058574631+1059079878+1058429554+1056676697
3777+1055828576+1056871878+1059062326+1061134824+1061624115+1059846239
3769+1057477460+1056444689+1056515153+1057111991+1058503592+1060250577
3760+1060563134+1058878698+1057822568+1059616401+1063569216+1066636380
3752+1064234348+1057359318+1054518162+1057314193+1060298510+1058074298
3743+1053576024+1053566131+1057721978+1063021077+1066200576+1064308450
3735+1058626458+1054345767+1053746440+1055622800+1058412193+1060688233
3726+1061178673+1059989784+1058547824+1057652152+1057263259+1057491885
3718+1058674455+1060980237+1063882219+1065225632+1062137469+1056357694
3709+1053377525+1054235923+1056900663+1059668802+1060910794+1059535214
3701+1057091439+1056116623+1056853177+1058270755+1059920213+1061832188
3692+1063187600+1061572735+1055987886+1050949580+1050252343+1052456451
3683+1055242780+1057433930+1059089069+1061026830+1062537467+1059880641
3675+1052955443+1049363118+1050767165+1052041836+1049859749+1047352340
3666+1047778443+1049951020+1051774341+1052531957+1053013270+1053922281
3658+1054260687+1052641291+1050782802+1051782894+1055391558+1057373615
3649+1052351201+1043823840+1040637832+1042450238+1045563038+1048020344
3641+1049162065+1049340715+1049406583+1049737203+1050225919+1051217713
3632+1053350591+1055402600+1053126689+1046100901+1042294630+1044139333
3624+1048337368+1052433473+1054620284+1053346889+1050034377+1048525464
3615+1049611529+1051255562+1052001498+1052104641+1051867718+1050886137
3607+1049751755+1049935127+1051616626+1053534474+1054398679+1054234965
3598+1054116249+1054385084+1054301408+1053658807+1053665573+1055277310
3590+1057457674+1057461312+1054215435+1051211969+1051244393+1053245022
3581+1055261289+1056338291+1056627807+1056668336+1056717035+1056851198
3573+1057433228+1058977437+1061179566+1062096492+1059680546+1055710242
3564+1053867135+1054526523+1056003332+1057077142+1057669257+1058320603
3556+1059214424+1059835771+1059631911+1058995692+1058892421+1059292483
3547+1059027796+1057482885+1055816832+1055577675+1056821646+1058409449
3539+1059242635+1059045923+1058432618+1058213503+1058599395+1059168278
3530+1059333906+1058706751+1057291662+1055438917+1053592492+1052127746
3522+1051213501+1050677936+1050123925+1049292526+1048362069+1047910818
3513+1048395258+1049528236+1050395378+1050460991+1050097756+1049744798
3505+1049215360+1048322114+1047607580+1047771294+1048740175+1049923128
3496+1050925900+1051767128+1052648057+1053603151+1054344874+1054531119
3488+1054248305+1054010744+1054059380+1053929621+1053053991+1051670751
3479+1050619599+1050221451+1049958807+1049223977+1047885415+1046147175
3471+1044296217+1042692458+1041686942+1041414021+1041691793+1042149234
3462+1042542914+1043005526+1043846307+1045115298+1046555598+1047922307
3454+1049159066+1050333530+1051493761+1052513511+1053138369+1053362016
3445+1053564600+1054015850+1054536799+1054848334+1054944712+1055013899
3437+1055221717+1055642076+1056208724+1056737205+1057120161+1057451929
3428+1057872033+1058397258+1058952035+1059431050+1059709715+1059742649
3420+1059696375+1059805964+1060089735+1060368783+1060541050+1060677319
3411+1060864457+1061103166+1061373087+1061644412+1061814381+1061770085
3403+1061578224+1061492825+1061679197+1062012306+1062245845+1062295055
3394+1062245782+1062212528+1062296396+1062559359+1062926615+1063207194
3386+1063269170+1063148730+1062985654+1062903829+1062934976+1063023311
3377+1063099201+1063125305+1063085159+1062980548+1062856151+1062783389
3369+1062804388+1062901340+1063014057+1063093903+1063140177+1063193472
3360+1063294381+1063441500+1063580577+1063659658+1063697762+1063760439
3352+1063888283+1064074528+1064281260+1064461122+1064603135+1064732894
3343+1064849504+1064919522+1064959477+1065029239+1065125233+1065181655
3335+1065188932+1065205845+1065254864+1065281607+1065239992+1065158295
3326+1065107106+1065123637+1065187208+1065248481+1065277905+1065287990
3318+1065316711+1065382452+1065462044+1065522678+1065552932+1065543549
3309+1065486170+1065417876+1065420110+1065527976+1065679244+1065787748
3301+1065827959+1065829682+1065830256+1065854000+1065899572+1065943995
3292+1065972206+1065991098+1066009289+1066029968+1066063669+1066109368
3284+1066141473+1066150983+1066164386+1066199363+1066229808+1066218255
3275+1066151174+1066048095+1065955356+1065921336+1065949994+1065993204
3267+1065990907+1065910231+1065767898+1065626332+1065541571+1065516423
3258+1065502637+1065441683+1065297883+1065086491+1064873056+1064729256
3250+1064686301+1064716937+1064728745+1064621645+1064398828+1064170075
3241+1064013127+1063901240+1063784948+1063668210+1063578726+1063519432
3233+1063463775+1063378631+1063241214+1063053118+1062842173+1062662438
3224+1062557764+1062505745+1062411921+1062210869+1061951352+1061730896
3216+1061568650+1061416872+1061256987+1061097358+1060913411+1060689190
3207+1060466246+1060281277+1060117500+1059962594+1059837303+1059724331
3199+1059552383+1059296249+1059030924+1058844169+1058744919+1058685114
3190+1058628883+1058564355+1058475573+1058348240+1058207439+1058119104
3182+1058121657+1058162314+1058143102+1058045257+1057952964+1057930370
3173+1057943199+1057930434+1057881224+1057829333+1057799526+1057785102
3165+1057757529+1057688597+1057570901+1057418357+1057257515+1057107524
3156+1056961872+1056804030+1056630615+1056440924+1056229915+1055991715
3148+1055729454+1055459597+1055208122+1054987156+1054787125+1054591179
3139+1054382021+1054153140+1053920303+1053695698+1053464010+1053239469
3131+1053088712+1053027950+1052971527+1052832642+1052607974+1052341819
3122+1052076366+1051843975+1051631881+1051366109+1050983088+1050503052
3114+1050003549+1049534044+1049086814+1048632181+1048151698+1047654620
3105+1047173690+1046719376+1046265126+1045809216+1045402898+1045062641
3097+1044728448+1044357044+1043985512+1043655914+1043339272+1042968187
3088+1042502895+1041960628+1041382810+1040783738+1040132712+1039389074
3080+1038541910+1037620069+1036665294+1035700754+1034737873+1033796374
3071+1032895915+1032027050+1031142739+1030188986+1029152769+1028085787
3062+1027065144+1026134112+1025279417+1024443677+1023569643+1022666503
3054+1021806957+1021014747+1020199304+1019232211+1018065789+1016753779
3045+1015366072+1013902922+1012300056+1010499011+1008498509+1006353185
3037+1004120548+1001775704+999172747+996120071+992519512+988416705+983885881
3027+978868127+973175730+966643510+959201704+950805058+941376600+930853843
3017+919258042+906737719+893533946+879879815+865933745+851733008+837098827
3007+821612249+804762281+786211922+766048166+744663863+722199877+698709185
2997+675758717+657127873+646067572+641717311+639821676+637078174+633379450
2987+630170209+628538622+629425550+634322800+644574105+660093170+679297620
2977+700272159+721610124+742236045+761088302+777315710+790563204+800950713
2967+808949339+815280571+820685622+825631125+830204649+834282564+837791468
2958+840827102+843506204+845689631+846957601+847023725+846151158+845003437
2948+844120977+843745105+844078341+845399414+847886846+851571400+856526604
2938+862909727+870722618+879621703+889008801+898249738+906804672+914273030
2928+920440421+925306652+929023183+931739303+933433950+933887307+932866919
2918+930396146+926872817+922933660+919216874+916242002+914438340+914152144
2908+915521980+918380050+922354757+927081847+932292293+937732767+943116245
2898+948219271+952992890+957514013+961839956+965920552+969629168+972861578
2888+975598314+977824506+979413457+980212432+980313852+980185689+980497033
2878+981832722+984514759+988560442+993707380+999472410+1005271907+1010608153
2868+1015214421+1019053689+1022210210+1024784573+1026859432+1028520954
2860+1029883514+1031064744+1032147937+1033175091+1034161459+1035097087
2851+1035942080+1036651444+1037225113+1037714340+1038174016+1038624501
2843+1039072433+1039542959+1040073035+1040672617+1041309027+1041934268
2834+1042524468+1043082436+1043607151+1044086166+1044509907+1044877354
2826+1045191379+1045456768+1045679266+1045869148+1046041415+1046217511
2817+1046437584+1046755821+1047200816+1047750998+1048371579+1049048391
2809+1049757755+1050435141+1051017874+1051488144+1051858336+1052134065
2800+1052326564+1052478471+1052635547+1052795240+1052907446+1052923339
2792+1052852109+1052780815+1052809473+1052943827+1053083542+1053144049
2783+1053148772+1053177813+1053255298+1053323209+1053332209+1053337187
2775+1053458904+1053743440+1054107888+1054429124+1054647346+1054778572
2766+1054859185+1054902076+1054901182+1054866014+1054827272+1054807358
2758+1054813804+1054843739+1054861865+1054801039+1054625709+1054394531
2749+1054240582+1054271282+1054479292+1054755531+1054988624+1055138679
2741+1055224270+1055282671+1055361496+1055504020+1055711263+1055948888
2732+1056186896+1056394458+1056530982+1056601702+1056688633+1056859942
2724+1057089589+1057318597+1057540712+1057786442+1058067341+1058361835
2715+1058636095+1058862997+1059035455+1059167193+1059280292+1059393456
2707+1059514917+1059639187+1059750499+1059828431+1059865003+1059874705
2698+1059875471+1059861110+1059817262+1059752478+1059686482+1059620166
2690+1059534895+1059419625+1059280101+1059125450+1058955673+1058766875
2681+1058565185+1058378493+1058245224+1058190334+1058208843+1058287669
2673+1058431852+1058650456+1058929568+1059239316+1059559021+1059876556
2664+1060176156+1060440651+1060669021+1060879583+1061093656+1061318005
2656+1061549502+1061790063+1062041091+1062290779+1062519659+1062710882
2647+1062857172+1062964400+1063048778+1063123327+1063189132+1063236108
2639+1063253851+1063243448+1063217024+1063183196+1063136284+1063060139
2630+1062943529+1062792452+1062630781+1062482513+1062351797+1062225740
2622+1062089471+1061939289+1061783680+1061643391+1061538716+1061475783
2613+1061449998+1061463018+1061522376+1061622264+1061737534+1061847826
2605+1061954926+1062076451+1062231165+1062427622+1062655481+1062889085
2596+1063117200+1063358845+1063632532+1063920962+1064189606+1064428762
2588+1064657515+1064888630+1065115659+1065329541+1065527912+1065704966
2579+1065852468+1065976482+1066090348+1066194321+1066279528+1066347759
2571+1066407372+1066456008+1066490218+1066518366+1066547726+1066575618
2562+1066600255+1066625721+1066648252+1066659932+1066665357+1066680612
2553+1066716291+1066767288+1066820646+1066860027+1066869984+1066840688
2545+1066781202+1066717567+1066678314+1066672314+1066683037+1066692739
2536+1066701100+1066720822+1066760650+1066819689+1066887855+1066952894
2528+1067010593+1067063951+1067106906+1067125288+1067117055+1067093120
2519+1067057633+1067002040+1066915939+1066794158+1066634721+1066438328
2511+1066210660+1065961483+1065698455+1065423429+1065129318+1064804762
2502+1064446570+1064069230+1063693422+1063327251+1062958655+1062574997
2494+1062180551+1061788021+1061401107+1061010555+1060613556+1060221983
2485+1059845217+1059485047+1059151427+1058865678+1058642861+1058480934
2477+1058363749+1058275095+1058216566+1058209035+1058270372+1058401471
2468+1058593140+1058840275+1059145492+1059515747+1059945616+1060413461
2460+1060893434+1061368172+1061828359+1062270674+1062687777+1063067415
2451+1063404609+1063706698+1063971129+1064183606+1064336087+1064429401
2443+1064464186+1064441145+1064371766+1064274303+1064165416+1064052508
2434+1063933280+1063799309+1063643318+1063457074+1063236554+1062989930
2426+1062737434+1062498661+1062285035+1062105428+1061974201+1061898057
2417+1061861102+1061838507+1061818849+1061806275+1061811509+1061840741
2409+1061892695+1061962904+1062051240+1062158787+1062282609+1062413070
2400+1062541041+1062660460+1062772730+1062887298+1063014376+1063155878
2392+1063305806+1063458988+1063627170+1063849413+1064182394+1064669642
2383+1065320094+1066112113+1066985892+1067841800+1068570950+1069106834
2375+1069429220+1069532044+1069427496+1069174426+1068838764+1068392939
2366+1067726403+1066821157+1065834341+1064915564+1064047529+1063112859
2358+1062028198+1060790610+1059420072+1058026684+1057184498+1057890415
2349+1060724933+1065118276+1069219104+1070824586+1069537916+1067197093
2341+1065427897+1064381148+1063660998+1063086116+1062703096+1062555594
2332+1062493874+1062260334+1061812913+1061402000+1061263306+1061352088
2324+1061400213+1061169609+1060660532+1060097075+1059740287+1059695354
2315+1059838707+1059930298+1059841643+1059649080+1059504067+1059490472
2307+1059622656+1059880769+1060217770+1060567218+1060873584+1061118740
2298+1061323877+1061525759+1061744236+1061984860+1062252292+1062542062
2290+1062837322+1063130348+1063440670+1063794331+1064197840+1064624007
2281+1065027771+1065380155+1065682882+1065947377+1066172811+1066355928
2273+1066506877+1066643337+1066770160+1066878920+1066962532+1067024252
2264+1067065228+1067083610+1067085971+1067084759+1067078504+1067049335
2256+1066984296+1066888174+1066776862+1066661783+1066544407+1066425818
2247+1066320250+1066241169+1066178938+1066115240+1066044521+1065980822
2239+1065938761+1065916805+1065897784+1065876594+1065868552+1065886296
2230+1065929825+1065994864+1066073115+1066151557+1066224127+1066300144
2222+1066397160+1066527238+1066686548+1066864112+1067056037+1067262323
2213+1067469949+1067665576+1067849460+1068023960+1068183845+1068321900
2205+1068432830+1068521995+1068601140+1068664902+1068682135+1068628776
2196+1068504954+1068321964+1068096594+1067845885+1067588538+1067348871
2188+1067139777+1066941980+1066726630+1066490601+1066255721+1066050776
2179+1065902061+1065815449+1065777536+1065772111+1065783344+1065790301
2171+1065777153+1065736751+1065665840+1065567740+1065444108+1065289713
2162+1065114766+1064955519+1064840441+1064771956+1064744702+1064760786
2154+1064830165+1064961838+1065151657+1065386090+1065660607+1065972716
2145+1066315526+1066686675+1067085142+1067498671+1067908243+1068283030
2137+1068586077+1068804873+1068953715+1069032860+1069023605+1068920398
2128+1068732047+1068465062+1068127741+1067734126+1067296215+1066818540
2120+1066298549+1065735283+1065127148+1064458633+1063713463+1062903510
2111+1062049708+1061141398+1060157199+1059097622+1057967453+1056757310
2103+1055453725+1054049997+1052560487+1051028916+1049511003+1048065341
2094+1046767437+1045694392+1044881503+1044320790+1043992277+1043885879
2086+1044008106+1044376957+1044998624+1045860213+1046934406+1048190823
2077+1049602529+1051136463+1052732881+1054317237+1055837575+1057286492
2069+1058666604+1059917086+1060923177+1061662794+1062282737+1062934848
2060+1063602406+1064184308+1064652026+1065039898+1065368028+1065636736
2052+1065851638+1066024671+1066169492+1066287124+1066368247+1066397862
2043+1066330398+1066105985+1065744091+1065349135+1064977986+1064585775
2035+1064119014+1063586449+1063044055+1062549658+1062119533+1061725024
2026+1061340153+1060969961+1060648086+1060437907+1060365017+1060305085
2018+1060065737+1059661717+1059354586+1059336587+1059532916+1059772073
2009+1060007910+1060306361+1060714401+1061220734+1061793254+1062393539
2001+1062973527+1063493901+1063976363+1064528587+1065173294+1065641969
1992+1065597163+1065164486+1064849696+1064884736+1065082342+1065251034
1984+1065359666+1065396877+1065359156+1065285245+1065199654+1065105894
1975+1065012899+1064920479+1064867312+1064924308+1064986794+1064750318
1967+1064128205+1063506475+1063302614+1063471817+1063675997+1063758716
1958+1063818712+1063911579+1063966661+1063968385+1063993277+1064083463
1950+1064215328+1064378276+1064628985+1064933308+1064919330+1064199691
1941+1063166090+1062724733+1063107434+1063738355+1064103888+1064157310
1932+1064039806+1063863455+1063686337+1063556515+1063583832+1063685890
1924+1063405502+1062581762+1061790638+1061279518+1060304510+1058465105
1915+1056704398+1055933315+1055804705+1055358560+1054118929+1052378200
1907+1050699381+1049362288+1048244948+1047080951+1045778388+1044497333
1898+1043392567+1042334139+1041101210+1039923235+1039355438+1039375479
1890+1039213041+1038538527+1038130104+1038630500+1039642336+1040522881
1881+1041174482+1041745917+1042267440+1042781943+1043390589+1044289835
1873+1045788727+1047726935+1048911356+1048133444+1046183620+1045146573
1864+1045734603+1047033847+1047949688+1048146464+1047876161+1047407422
1856+1046869495+1046321484+1045777366+1045266630+1044862419+1044694939
1847+1044808741+1044494270+1042254675+1038211865+1035092300+1034440954
1839+1035019282+1035059684+1034265177+1033655574+1034037062+1034854292
1830+1034568670+1032946593+1031787958+1031868889+1032024880+1031722855
1822+1031835317+1032694352+1033548537+1033730697+1033378185+1033085032
1813+1032985718+1032364307+1030596962+1028145018+1025873574+1024061551
1805+1022416688+1020123351+1015974781+1009259125+1000553816+991198439+981823786
1795+970914307+954432233+929048522+897932076+867401873+837968841+805367417
1785+766863928+723817295+677819917+628045310+574742586+521169814+470144151
1775+421334052+372825754+327168091+295332580+285987032+295353898+311315023
1765+321612889+319202113+303207000+280276669+260962183+250592657+248840071
1755+253671597+263061025+276084250+292579281+311525043+331176244+350717535
1745+370045425+388896820+407097572+424875029+442233499+458865533+475891756
1735+496748154+524403756+556363664+588685274+622162329+657201847+691770775
1725+724643780+755398395+782775396+806234559+826621004+843799995+856208176
1716+864592247+872163748+880466824+889025205+897060211+904129145+909464690
1706+912574043+915193212+919344079+923600069+924848061+924879208+927896396
1696+933490054+939813499+947251093+956200089+965387667+973725975+981770109
1686+988867254+991029364+988442108+988232056+992682971+999328100+1005396432
1676+1008692604+1009204936+1009848495+1011999435+1013100308+1011267413
1667+1009738586+1011476955+1014806572+1016192364+1014786403+1013647106
1659+1015393964+1020316872+1027295492+1031974011+1026613446+1016535749
1650+1015039856+1020646981+1025400495+1024269432+1021380279+1022019498
1642+1025594335+1030006379+1034327216+1037203859+1035419025+1029291399
1633+1025729072+1027696193+1032312544+1035990269+1037504991+1038170059
1625+1038719857+1038240395+1037298768+1038443554+1041984691+1044389340
1616+1042277653+1038768812+1038713155+1041607223+1044508695+1045781962
1608+1045874382+1045957484+1046513601+1047201901+1047609240+1047841694
1599+1048243735+1048822766+1049216445+1049100473+1048582524+1048068915
1591+1047723425+1047387572+1046977042+1046550684+1046074158+1045414579
1582+1044686578+1044567925+1045529019+1045939612+1042125300+1034625731
1574+1030110862+1030755953+1032374647+1030630088+1026732737+1024786424
1565+1025526360+1028176803+1032995484+1038607523+1037595049+1025050855
1557+1014978456+1014492866+1018020345+1021398533+1023801331+1025545827
1548+1027351787+1030011804+1033218237+1035790047+1036696824+1033706315
1540+1025455896+1018879827+1019432178+1023939643+1026773331+1025431514
1531+1023431268+1024192394+1026407671+1027271558+1026616765+1026180131
1523+1025293267+1021896888+1017644855+1015429387+1014510163+1013421098
1514+1012830451+1013702252+1015911083+1018689753+1019286272+1012019540
1506+998852659+991483870+991682114+994460145+995703925+993021951+985927551
1496+977257794+971382727+969092071+966968896+960373232+948063088+933762910
1486+920733702+909249468+898741136+889572131+883255387+880787295+881212250
1476+882116666+880385063+873274450+862385268+853760317+850158098+849573387
1466+849050204+847656306+847485443+850572904+856214941+860833846+858788411
1456+849940132+842394544+839215748+837999861+836658810+834857828+833755168
1446+835071454+839451905+845891769+852915706+859781226+866064780+870353384
1436+871512147+871932315+874634777+879161325+883381189+886494244+889605895
1426+893520287+897720811+901757813+905970593+909938279+911709327+910918713
1416+910400572+911525954+912738395+912211447+909462200+905171043+900013892
1406+893609899+885253209+875754478+866236025+855350544+840705641+822576151
1397+803440570+784546443+766236198+749189901+732474670+712589068+686265262
1387+655202813+625622917+600947101+579259497+556704431+530715680+502029988
1377+474634127+454053458+445937297+454020333+478496245+517107154+565021294
1367+614394626+658432670+694567827+723110038+746531926+769125479+794265310
1357+822513538+852123943+880586945+906128754+928092279+946363718+961053555
1347+972534788+981356452+988146593+993383654+997016764+998734963+998876657
1337+998457320+998111510+997667344+996601129+994517142+991290604+986885772
1327+981180674+974026724+965358818+955219784+943724763+931081575+917864909
1317+905095792+893491693+882821115+872542748+862779330+854067448+846376337
1307+839039397+831769793+825414882+821463151+820912906+823763253+829307764
1297+836512521+844192207+851198847+856588197+859654978+859899240+856955388
1287+850546608+840492462+826614175+808601614+786111907+758993976+727486531
1277+692529604+656014745+620529784+588545431+561331953+538236216+517214477
1268+496246512+473779240+447905184+416408590+378606422+336771784+294987057
1258+256511779+222396272+192045117+164487903+139431859+117693760+100791543
1248+89949990+85015274+84021325+84355734+84959027+87006752+92051585+100155882
1236+110403110+122668017+138225019+158883332+185964419+219858577+259978000
1226+304867915+352509071+400866898+448421888+494212661+537455878+577428070
1216+613857338+647242292+678573768+708695994+737909081+766060165+792848626
1207+818008499+841353093+862776139+882232829+899724632+915293546+929003843
1197+940947753+951268947+960145181+967749042+974237669+979743183+984374789
1187+988247247+991476210+994139611+996274913+997887608+998950696+999462709
1177+999526727+999352928+999200320+999273592+999596808+999993870+1000215985
1167+1000037591+999303080+998082597+996827073+996229788+996831030+998727113
1157+1001609054+1005014624+1008534698+1011871719+1014843080+1017374679
1148+1019455922+1021096955+1022322799+1023155411+1023588407+1023610747
1140+1023218088+1022368180+1020968281+1018932930+1016212023+1012767200
1131+1008570568+1003660808+998193463+992366585+986172707+979155536+970476141
1121+959355078+945600613+929859113+913502968+898259185+885646633+876450693
1112+870556670+866961920+863773933+858913765+851755411+843820994+837088105
1102+831999503+827945013+825193086+825249764+829341720+837220608+847396342
1092+858019242+867518292+874848211+879488306+881295734+880317535+876670638
1082+870506695+861985206+851220548+838220125+822780267+804382899+782241172
1072+755606915+724300778+689170435+652104948+615554730+581773225+551960810
1062+525770081+501844254+479106167+457462890+437365481+419286222+403963933
1052+392743907+387201502+388455399+396965112+412847667+436205346+467073987
1042+505022699+548821012+596508314+645778631+694429452+740695091+783360554
1032+821697330+855374351+884390216+908979547+929513367+946440373+960253047
1022+971444830+980474311+987727894+993482967+997902990+1001072276+1003049737
1012+1003933537+1003890837+1003149242+1002006627+1000843651+1000067461
1004+1000042059+1001045916+1003174198+1006247744+1009923746+1013912495
995+1018045620+1022225975+1026394395+1030500968+1034482824+1038295605
987+1041918312+1045307287+1048409236+1051213756+1053742036+1056010289
978+1058027067+1059794922+1061323941+1062657460+1063844434+1064893034
970+1065793876+1066557938+1067195114+1067700745+1068073362+1068300391
961+1068343091+1068154165+1067670746+1066765309+1065228185+1062778283
953+1059077134+1053824819+1046908557+1038449107+1028705730+1017842972
944+1005608526+991576035+976481668+963297170+955866917+955878469+961623394
934+969835327+978081980+985382795+991509719+996361142+999802455+1001723877
924+1002128024+1001218757+999498515+997749233+996837349+997559286+1000572198
914+1006118177+1013628214+1021833700+1029531513+1036250361+1042169148
906+1047573242+1052527872+1056947320+1060732081+1063806522+1066166620
897+1067923306+1069215019+1070105011+1070620279+1070824586+1070862627
889+1070749527+1070526008+1070178858+1069669653+1068993351+1068170122
880+1067204624+1066086646+1064808145+1063357888+1061719854+1059851600
872+1057665172+1055089916+1052126214+1048772535+1044950307+1040563411
863+1035560273+1029905087+1023557133+1016461009+1008484467+999392500+988987885
854+977388701+965328883+954236095+945902510+941944461+943358848+950197689
844+961394131+975004285+988916400+1001579821+1012311226+1021135059+1028396238
834+1034434954+1039491642+1043734228+1047267515+1050157242+1052477258
825+1054292090+1055623503+1056498240+1056969085+1057047208+1056699866
817+1055934974+1054813996+1053414927+1051873973+1050414270+1049241018
808+1048406939+1047751253+1046961979+1045766005+1044061273+1041825062
800+1038984352+1035468810+1031267647+1026393885+1020908732+1015012730
791+1009116154+1003895497+1000187327+998638586+999434115+1002328502+1006821733
781+1012326608+1018324412+1024416551+1030286129+1035701265+1040545986
773+1044787615+1048464382+1051683899+1054538522+1057031762+1059139683
764+1060875818+1062281843+1063425735+1064372021+1065119744+1065637310
756+1065955547+1066141792+1066230319+1066245445+1066232233+1066233382
747+1066273720+1066345588+1066375204+1066269125+1066032458+1065770962
739+1065553698+1065357943+1065148083+1064925011+1064703151+1064495652
730+1064299132+1064077208+1063806075+1063516113+1063239746+1062946465
722+1062563189+1062065537+1061570374+1061252456+1061114847+1061002385
713+1060870584+1060802801+1060775802+1060688935+1060552921+1060426992
705+1060309106+1060207558+1060144179+1060094969+1060053546+1060062673
696+1060152795+1060371208+1060767888+1061278369+1061758150+1062137724
688+1062434388+1062693458+1062954954+1063176813+1063252256+1063143815
679+1062909956+1062614441+1062233463+1061739832+1061492442+1062082195
671+1063046033+1061992073+1057383635+1053093563+1052383625+1053484115
662+1054005191+1053374270+1052273908+1051163142+1050007442+1048705964
654+1047085227+1044857504+1041695367+1037246367+1031295539+1023888837
645+1015148297+1005093449+993542007+980056505+964460210+947848696+933045441
635+923849884+923167328+930979453+943952495+957454591+968452853+976646595
625+983154944+988818619+993694296+997289302+998893699+997950221+994194310
615+987417890+977377340+964257498+949506580+936429246+929526898+932214935
605+944480401+962669696+981729451+997992985+1010317170+1019301462+1025982781
595+1031222394+1035671330+1039726586+1043492774+1046955150+1050107011
587+1052920083+1055384155+1057517479+1059243720+1060493372+1061439849
578+1062286120+1062918956+1063152815+1063117646+1063077117+1063104562
570+1063122816+1063053373+1062907148+1062775155+1062682990+1062539892
561+1062314522+1062079323+1061868378+1061669176+1061474634+1061234712
553+1060930644+1060674574+1060537539+1060425588+1060312999+1060377591
544+1060727358+1061210841+1061608478+1061836018+1061952309+1062128405
536+1062603910+1063505773+1064692301+1065873850+1066875281+1067676746
527+1068253798+1068546441+1068583779+1068476041+1068286860+1068071511
519+1067940093+1067871352+1067637110+1067217389+1066990551+1067176030
510+1067450738+1067359530+1066862133+1066286039+1065939718+1065891849
502+1066179513+1067086610+1068717048+1070325849+1070824586+1070677467
493+1070066907+1069872301+1070281490+1070930282+1071392001+1071433105
485+1071003810+1070482415+1070743974+1072051452+1073328740+1073426650
476+1072422792+1070824586
##END=
